462.00000,0.19284
466.00000,0.19261
470.00000,0.19153
474.00000,0.19078
478.00000,0.19059
482.00000,0.19216
486.00000,0.19284
490.00000,0.19306
494.00000,0.19382
498.00000,0.19440
502.00000,0.19560
506.00000,0.19677
510.00000,0.19847
514.00000,0.20022
518.00000,0.19999
522.00000,0.19885
526.00000,0.19907
530.00000,0.19977
534.00000,0.19999
538.00000,0.20025
542.00000,0.20042
546.00000,0.20156
550.00000,0.20224
554.00000,0.20206
558.00000,0.20085
562.00000,0.19881
566.00000,0.19817
570.00000,0.19752
574.00000,0.19731
578.00000,0.19659
582.00000,0.19814
586.00000,0.19931
590.00000,0.20139
594.00000,0.20522
598.00000,0.21091
602.00000,0.21920
606.00000,0.21773
610.00000,0.21905
614.00000,0.21772
618.00000,0.20884
622.00000,0.30645
626.00000,0.22771
630.00000,0.25827
634.00000,0.31142
638.00000,0.36757
642.00000,0.43575
646.00000,0.48607
650.00000,0.68036
654.00000,0.64690
658.00000,0.64967
662.00000,0.62294
666.00000,0.53755
670.00000,1.35106
674.00000,0.71709
678.00000,0.74506
682.00000,0.72034
686.00000,0.67963
690.00000,0.62409
694.00000,0.55168
698.00000,0.48837
702.00000,0.40561
706.00000,0.34698
710.00000,0.30472
714.00000,0.26219
718.00000,0.23369
722.00000,0.37969
726.00000,0.20760
730.00000,0.22294
734.00000,0.22743
738.00000,0.22915
742.00000,0.23088
746.00000,0.21926
750.00000,0.21134
754.00000,0.20661
758.00000,0.20487
762.00000,0.20336
766.00000,0.20227
770.00000,0.20249
774.00000,0.20184
778.00000,0.20206
782.00000,0.20219
786.00000,0.20338
790.00000,0.20361
794.00000,0.20383
798.00000,0.20403
802.00000,0.20559
806.00000,0.20494
810.00000,0.20471
814.00000,0.20495
818.00000,0.20429
822.00000,0.20451
826.00000,0.20476
830.00000,0.20455
834.00000,0.20471
838.00000,0.20497
842.00000,0.20431
846.00000,0.20454
850.00000,0.20454
854.00000,0.20499
858.00000,0.20519
862.00000,0.20543
866.00000,0.20569
870.00000,0.20544
874.00000,0.20566
878.00000,0.20589
882.00000,0.20611
886.00000,0.20634
890.00000,0.20667
894.00000,0.20676
898.00000,0.20617
902.00000,0.20723
906.00000,0.20652
910.00000,0.20643
914.00000,0.20528
918.00000,0.20551
922.00000,0.20530
926.00000,0.20552
930.00000,0.20488
934.00000,0.20510
938.00000,0.20487
942.00000,0.20511
946.00000,0.20534
950.00000,0.20556
954.00000,0.20578
958.00000,0.20601
962.00000,0.20623
966.00000,0.20590
970.00000,0.20581
974.00000,0.20604
978.00000,0.20602
982.00000,0.20648
986.00000,0.20671
990.00000,0.20647
994.00000,0.20582
998.00000,0.20695
1002.00000,0.20761
1006.00000,0.20915
1010.00000,0.20770
1014.00000,0.20698
1018.00000,0.20659
1022.00000,0.20571
1026.00000,0.20593
1030.00000,0.20571
1034.00000,0.20595
1038.00000,0.20614
1042.00000,0.20723
1046.00000,0.20812
1050.00000,0.20913
1054.00000,0.20705
1058.00000,0.20813
1062.00000,0.20840
1066.00000,0.20949
1070.00000,0.21217
1074.00000,0.21291
1078.00000,0.21212
1082.00000,0.21033
1086.00000,0.20970
1090.00000,0.20950
1094.00000,0.20929
1098.00000,0.20865
1102.00000,0.20889
1106.00000,0.20911
1110.00000,0.20933
1114.00000,0.20913
1118.00000,0.20935
1122.00000,0.20957
1126.00000,0.20977
1130.00000,0.21050
1134.00000,0.21210
1138.00000,0.21320
1142.00000,0.21371
1146.00000,0.21255
1150.00000,0.21199
1154.00000,0.21136
1158.00000,0.21158
1162.00000,0.21181
1166.00000,0.21203
1170.00000,0.21225
1174.00000,0.21303
1178.00000,0.21522
1182.00000,0.21499
1186.00000,0.21314
1190.00000,0.21208
1194.00000,0.21146
1198.00000,0.21169
1202.00000,0.21191
1206.00000,0.21213
1210.00000,0.21236
1214.00000,0.21258
1218.00000,0.21280
1222.00000,0.21387
1226.00000,0.21452
1230.00000,0.21472
1234.00000,0.21587
1238.00000,0.21759
1242.00000,0.22052
1246.00000,0.22135
1250.00000,0.22270
1254.00000,0.22426
1258.00000,0.22447
1262.00000,0.22516
1266.00000,0.22535
1270.00000,0.22558
1274.00000,0.22667
1278.00000,0.22689
1282.00000,0.22755
1286.00000,0.22778
1290.00000,0.22898
1294.00000,0.22953
1298.00000,0.22975
1302.00000,0.22998
1306.00000,0.22976
1310.00000,0.22999
1314.00000,0.23064
1318.00000,0.23081
1322.00000,0.23109
1326.00000,0.23088
1330.00000,0.23110
1334.00000,0.23132
1338.00000,0.23155
1342.00000,0.23177
1346.00000,0.23105
1350.00000,0.23263
1354.00000,0.23539
1358.00000,0.23706
1362.00000,0.23758
1366.00000,0.23721
1370.00000,0.23899
1374.00000,0.23982
1378.00000,0.24089
1382.00000,0.24852
1386.00000,0.24841
1390.00000,0.24068
1394.00000,0.23641
1398.00000,0.23493
1402.00000,0.23512
1406.00000,0.23564
1410.00000,0.23556
1414.00000,0.23492
1418.00000,0.23515
1422.00000,0.23623
1426.00000,0.23646
1430.00000,0.23577
1434.00000,0.23828
1438.00000,0.23857
1442.00000,0.23866
1446.00000,0.23888
1450.00000,0.23932
1454.00000,0.24063
1458.00000,0.24221
1462.00000,0.24140
1466.00000,0.24138
1470.00000,0.24066
1474.00000,0.24088
1478.00000,0.24153
1482.00000,0.24355
1486.00000,0.24375
1490.00000,0.24297
1494.00000,0.24332
1498.00000,0.24310
1502.00000,0.24376
1506.00000,0.24401
1510.00000,0.24306
1514.00000,0.24443
1518.00000,0.24463
1522.00000,0.24599
1526.00000,0.24604
1530.00000,0.24530
1534.00000,0.24509
1538.00000,0.24571
1542.00000,0.24600
1546.00000,0.24695
1550.00000,0.24628
1554.00000,0.24529
1558.00000,0.24689
1562.00000,0.24696
1566.00000,0.24705
1570.00000,0.24710
1574.00000,0.24872
1578.00000,0.24888
1582.00000,0.24917
1586.00000,0.24801
1590.00000,0.24823
1594.00000,0.24850
1598.00000,0.24868
1602.00000,0.24894
1606.00000,0.24913
1610.00000,0.24935
1614.00000,0.25002
1618.00000,0.24979
1622.00000,0.25145
1626.00000,0.24948
1630.00000,0.24916
1634.00000,0.24966
1638.00000,0.24872
1642.00000,0.24763
1646.00000,0.24749
1650.00000,0.24893
1654.00000,0.25049
1658.00000,0.25203
1662.00000,0.25225
1666.00000,0.25247
1670.00000,0.25313
1674.00000,0.25336
1678.00000,0.25356
1682.00000,0.25209
1686.00000,0.25271
1690.00000,0.25450
1694.00000,0.25535
1698.00000,0.25602
1702.00000,0.25624
1706.00000,0.25646
1710.00000,0.25630
1714.00000,0.25647
1718.00000,0.25716
1722.00000,0.25760
1726.00000,0.25802
1730.00000,0.25824
1734.00000,0.25787
1738.00000,0.25781
1742.00000,0.25847
1746.00000,0.25869
1750.00000,0.25892
1754.00000,0.25914
1758.00000,0.25936
1762.00000,0.25959
1766.00000,0.25953
1770.00000,0.25959
1774.00000,0.25982
1778.00000,0.26004
1782.00000,0.26037
1786.00000,0.26049
1790.00000,0.26071
1794.00000,0.26093
1798.00000,0.26115
1802.00000,0.26138
1806.00000,0.26066
1810.00000,0.26094
1814.00000,0.26117
1818.00000,0.26139
1822.00000,0.26161
1826.00000,0.26184
1830.00000,0.26206
1834.00000,0.26228
1838.00000,0.26251
1842.00000,0.26273
1846.00000,0.26295
1850.00000,0.26318
1854.00000,0.26340
1858.00000,0.26362
1862.00000,0.26385
1866.00000,0.26499
1870.00000,0.26517
1874.00000,0.26539
1878.00000,0.26562
1882.00000,0.26584
1886.00000,0.26606
1890.00000,0.26629
1894.00000,0.26651
1898.00000,0.26673
1902.00000,0.26696
1906.00000,0.26626
1910.00000,0.26740
1914.00000,0.26763
1918.00000,0.26787
1922.00000,0.26719
1926.00000,0.26742
1930.00000,0.26764
1934.00000,0.26786
1938.00000,0.26900
1942.00000,0.26960
1946.00000,0.27029
1950.00000,0.27007
1954.00000,0.27138
1958.00000,0.27310
1962.00000,0.26972
1966.00000,0.26919
1970.00000,0.26986
1974.00000,0.26966
1978.00000,0.26994
1982.00000,0.27010
1986.00000,0.27032
1990.00000,0.27055
1994.00000,0.27077
1998.00000,0.27099
2002.00000,0.27122
2006.00000,0.27144
2010.00000,0.27166
2014.00000,0.27189
2018.00000,0.27211
2022.00000,0.27233
2026.00000,0.27255
2030.00000,0.27278
2034.00000,0.27343
2038.00000,0.27366
2042.00000,0.27417
2046.00000,0.27499
2050.00000,0.27521
2054.00000,0.27575
2058.00000,0.27610
2062.00000,0.27593
2066.00000,0.27611
2070.00000,0.27503
2074.00000,0.27567
2078.00000,0.27677
2082.00000,0.27905
2086.00000,0.27748
2090.00000,0.27656
2094.00000,0.27675
2098.00000,0.27648
2102.00000,0.27592
2106.00000,0.27614
2110.00000,0.27680
2114.00000,0.27746
2118.00000,0.27706
2122.00000,0.27777
2126.00000,0.27813
2130.00000,0.27836
2134.00000,0.27858
2138.00000,0.27881
2142.00000,0.27815
2146.00000,0.27837
2150.00000,0.27859
2154.00000,0.27882
2158.00000,0.27904
2162.00000,0.27926
2166.00000,0.27905
2170.00000,0.27927
2174.00000,0.27950
2178.00000,0.27916
2182.00000,0.27907
2186.00000,0.27929
2190.00000,0.27951
2194.00000,0.27974
2198.00000,0.28021
2202.00000,0.28106
2206.00000,0.28172
2210.00000,0.28192
2214.00000,0.28304
2218.00000,0.28329
2222.00000,0.28473
2226.00000,0.28552
2230.00000,0.28773
2234.00000,0.28955
2238.00000,0.29304
2242.00000,0.30188
2246.00000,0.31036
2250.00000,0.34692
2254.00000,0.36038
2258.00000,0.35164
2262.00000,0.42327
2266.00000,0.39812
2270.00000,0.43661
2274.00000,0.44761
2278.00000,0.45675
2282.00000,0.46162
2286.00000,0.42706
2290.00000,0.47811
2294.00000,0.63761
2298.00000,0.59416
2302.00000,1.14333
2306.00000,0.90650
2310.00000,1.29048
2314.00000,1.65720
2318.00000,1.95992
2322.00000,1.99263
2326.00000,2.02921
2330.00000,2.00856
2334.00000,1.98390
2338.00000,1.96813
2342.00000,1.96316
2346.00000,1.96338
2350.00000,1.92577
2354.00000,1.89870
2358.00000,1.84971
2362.00000,1.80894
2366.00000,1.80075
2370.00000,1.79558
2374.00000,1.77366
2378.00000,1.75059
2382.00000,1.00719
2386.00000,0.55081
2390.00000,0.44592
2394.00000,0.37097
2398.00000,0.29567
2402.00000,0.29422
2406.00000,0.29303
2410.00000,0.29308
2414.00000,0.29280
2418.00000,0.29223
2422.00000,0.29245
2426.00000,0.29356
2430.00000,0.29378
2434.00000,0.29400
2438.00000,0.29422
2442.00000,0.29446
2446.00000,0.29379
2450.00000,0.29402
2454.00000,0.29424
2458.00000,0.29446
2462.00000,0.29469
2466.00000,0.29491
2470.00000,0.29513
2474.00000,0.29536
2478.00000,0.29558
2482.00000,0.29580
2486.00000,0.29603
2490.00000,0.29625
2494.00000,0.29647
2498.00000,0.29669
2502.00000,0.29692
2506.00000,0.29714
2510.00000,0.29736
2514.00000,0.29759
2518.00000,0.29781
2522.00000,0.29803
2526.00000,0.29799
2530.00000,0.29804
2534.00000,0.29827
2538.00000,0.29849
2542.00000,0.29871
2546.00000,0.29894
2550.00000,0.29916
2554.00000,0.29938
2558.00000,0.29902
2562.00000,0.29896
2566.00000,0.29918
2570.00000,0.29940
2574.00000,0.29963
2578.00000,0.29985
2582.00000,0.30007
2586.00000,0.30029
2590.00000,0.30023
2594.00000,0.30031
2598.00000,0.30053
2602.00000,0.30075
2606.00000,0.30098
2610.00000,0.30120
2614.00000,0.30142
2618.00000,0.30164
2622.00000,0.30187
2626.00000,0.30209
2630.00000,0.30231
2634.00000,0.30254
2638.00000,0.30276
2642.00000,0.30298
2646.00000,0.30321
2650.00000,0.30345
2654.00000,0.30278
2658.00000,0.30372
2662.00000,0.30410
2666.00000,0.30432
2670.00000,0.30466
2674.00000,0.30520
2678.00000,0.30543
2682.00000,0.30565
2686.00000,0.30557
2690.00000,0.30566
2694.00000,0.30588
2698.00000,0.30611
2702.00000,0.30633
2706.00000,0.30655
2710.00000,0.30678
2714.00000,0.30700
2718.00000,0.30722
2722.00000,0.30745
2726.00000,0.30767
2730.00000,0.30789
2734.00000,0.30812
2738.00000,0.30834
2742.00000,0.30856
2746.00000,0.30878
2750.00000,0.30901
2754.00000,0.30923
2758.00000,0.30945
2762.00000,0.30968
2766.00000,0.30990
2770.00000,0.31012
2774.00000,0.31035
2778.00000,0.31057
2782.00000,0.31079
2786.00000,0.31102
2790.00000,0.31124
2794.00000,0.31146
2798.00000,0.31169
2802.00000,0.31191
2806.00000,0.31213
2810.00000,0.31236
2814.00000,0.31258
2818.00000,0.31280
2822.00000,0.31302
2826.00000,0.31325
2830.00000,0.31347
2834.00000,0.31336
2838.00000,0.31325
2842.00000,0.31240
2846.00000,0.31263
2850.00000,0.31323
2854.00000,0.31488
2858.00000,0.31766
2862.00000,0.31833
2866.00000,0.31854
2870.00000,0.31852
2874.00000,0.31795
2878.00000,0.31754
2882.00000,0.31688
2886.00000,0.31703
2890.00000,0.31682
2894.00000,0.31704
2898.00000,0.31639
2902.00000,0.31637
2906.00000,0.31642
2910.00000,0.31623
2914.00000,0.31555
2918.00000,0.31578
2922.00000,0.31687
2926.00000,0.31836
2930.00000,0.32226
2934.00000,0.32479
2938.00000,0.32563
2942.00000,0.32586
2946.00000,0.32526
2950.00000,0.32542
2954.00000,0.32478
2958.00000,0.32498
2962.00000,0.32501
2966.00000,0.32499
2970.00000,0.32460
2974.00000,0.32412
2978.00000,0.32435
2982.00000,0.32457
2986.00000,0.32479
2990.00000,0.32502
2994.00000,0.32524
2998.00000,0.32546
3002.00000,0.32568
3006.00000,0.32591
3010.00000,0.32613
3014.00000,0.32635
3018.00000,0.32658
3022.00000,0.32680
3026.00000,0.32702
3030.00000,0.32725
3034.00000,0.32747
3038.00000,0.32807
3042.00000,0.32835
3046.00000,0.32858
3050.00000,0.32880
3054.00000,0.32902
3058.00000,0.32925
3062.00000,0.32917
3066.00000,0.32925
3070.00000,0.32948
3074.00000,0.32970
3078.00000,0.32907
3082.00000,0.32927
3086.00000,0.32950
3090.00000,0.32972
3094.00000,0.32994
3098.00000,0.33017
3102.00000,0.33039
3106.00000,0.33061
3110.00000,0.33083
3114.00000,0.33106
3118.00000,0.33128
3122.00000,0.33150
3126.00000,0.33146
3130.00000,0.33151
3134.00000,0.33174
3138.00000,0.33115
3142.00000,0.33131
3146.00000,0.33153
3150.00000,0.33157
3154.00000,0.33154
3158.00000,0.33177
3162.00000,0.33199
3166.00000,0.33221
3170.00000,0.33244
3174.00000,0.33266
3178.00000,0.33288
3182.00000,0.33311
3186.00000,0.33333
3190.00000,0.33355
3194.00000,0.33378
3198.00000,0.33400
3202.00000,0.33422
3206.00000,0.33445
3210.00000,0.33467
3214.00000,0.33489
3218.00000,0.33512
3222.00000,0.33534
3226.00000,0.33556
3230.00000,0.33578
3234.00000,0.33601
3238.00000,0.33623
3242.00000,0.33645
3246.00000,0.33668
3250.00000,0.33692
3254.00000,0.33625
3258.00000,0.33648
3262.00000,0.33670
3266.00000,0.33692
3270.00000,0.33715
3274.00000,0.33737
3278.00000,0.33759
3282.00000,0.33782
3286.00000,0.33804
3290.00000,0.33783
3294.00000,0.33805
3298.00000,0.33827
3302.00000,0.33850
3306.00000,0.33872
3310.00000,0.33894
3314.00000,0.33917
3318.00000,0.33939
3322.00000,0.33961
3326.00000,0.33984
3330.00000,0.34006
3334.00000,0.34028
3338.00000,0.34051
3342.00000,0.34073
3346.00000,0.34095
3350.00000,0.34118
3354.00000,0.34140
3358.00000,0.34162
3362.00000,0.34184
3366.00000,0.34207
3370.00000,0.34229
3374.00000,0.34251
3378.00000,0.34274
3382.00000,0.34296
3386.00000,0.34318
3390.00000,0.34341
3394.00000,0.34363
3398.00000,0.34385
3402.00000,0.34408
3406.00000,0.34430
3410.00000,0.34452
3414.00000,0.34475
3418.00000,0.34497
3422.00000,0.34519
3426.00000,0.34541
3430.00000,0.34564
3434.00000,0.34586
3438.00000,0.34608
3442.00000,0.34630
3446.00000,0.34696
3450.00000,0.34719
3454.00000,0.34741
3458.00000,0.34763
3462.00000,0.34786
3466.00000,0.34808
3470.00000,0.34830
3474.00000,0.34853
3478.00000,0.34875
3482.00000,0.34897
3486.00000,0.34920
3490.00000,0.34942
3494.00000,0.35053
3498.00000,0.35092
3502.00000,0.35139
3506.00000,0.35225
3510.00000,0.35271
3514.00000,0.35293
3518.00000,0.35366
3522.00000,0.35477
3526.00000,0.35563
3530.00000,0.35665
3534.00000,0.35800
3538.00000,0.35959
3542.00000,0.36135
3546.00000,0.36656
3550.00000,0.37116
3554.00000,0.37809
3558.00000,0.38470
3562.00000,0.39524
3566.00000,0.40066
3570.00000,0.40459
3574.00000,0.41523
3578.00000,0.42993
3582.00000,0.47228
3586.00000,0.51964
3590.00000,0.53520
3594.00000,0.53353
3598.00000,0.52583
3602.00000,0.48295
3606.00000,0.41113
3610.00000,0.45114
3614.00000,0.52242
3618.00000,0.56932
3622.00000,0.56242
3626.00000,0.52957
3630.00000,0.50098
3634.00000,0.43600
3638.00000,0.39494
3642.00000,0.37431
3646.00000,0.36775
3650.00000,0.36819
3654.00000,0.37069
3658.00000,0.38223
3662.00000,0.39493
3666.00000,0.40231
3670.00000,0.41963
3674.00000,0.45105
3678.00000,0.46295
3682.00000,0.50262
3686.00000,0.53960
3690.00000,0.56369
3694.00000,0.59066
3698.00000,0.58113
3702.00000,0.53891
3706.00000,0.47530
3710.00000,0.53035
3714.00000,0.65112
3718.00000,0.67021
3722.00000,0.63469
3726.00000,0.60181
3730.00000,0.53500
3734.00000,0.44607
3738.00000,0.39187
3742.00000,0.36822
3746.00000,0.36432
3750.00000,0.36373
3754.00000,0.36346
3758.00000,0.36350
3762.00000,0.36372
3766.00000,0.36395
3770.00000,0.36417
3774.00000,0.36439
3778.00000,0.36475
3782.00000,0.36527
3786.00000,0.36542
3790.00000,0.36542
3794.00000,0.36542
