462.00000,0.20930
466.00000,0.21372
470.00000,0.20994
474.00000,0.22550
478.00000,0.20481
482.00000,0.22404
486.00000,0.19927
490.00000,0.22688
494.00000,0.23333
498.00000,0.21685
502.00000,0.21670
506.00000,0.21682
510.00000,0.21897
514.00000,0.21654
518.00000,0.22259
522.00000,0.21217
526.00000,0.22227
530.00000,0.22042
534.00000,0.22095
538.00000,0.21297
542.00000,0.20731
546.00000,0.22775
550.00000,0.21421
554.00000,0.22825
558.00000,0.21447
562.00000,0.21782
566.00000,0.21179
570.00000,0.22176
574.00000,0.21827
578.00000,0.21335
582.00000,0.21790
586.00000,0.21578
590.00000,0.22145
594.00000,0.21600
598.00000,0.23097
602.00000,0.23686
606.00000,0.23823
610.00000,0.23596
614.00000,0.23403
618.00000,0.22575
622.00000,0.32366
626.00000,0.25809
630.00000,0.30227
634.00000,0.40390
638.00000,0.53684
642.00000,0.77023
646.00000,1.02649
650.00000,1.47309
654.00000,1.67685
658.00000,1.69159
662.00000,1.50009
666.00000,1.10550
670.00000,2.61702
674.00000,2.21367
678.00000,1.26302
682.00000,1.37165
686.00000,1.83035
690.00000,1.86131
694.00000,1.70404
698.00000,1.27258
702.00000,0.94078
706.00000,0.62999
710.00000,0.45048
714.00000,0.32520
718.00000,0.26781
722.00000,0.39466
726.00000,0.21748
730.00000,0.23806
734.00000,0.23536
738.00000,0.24127
742.00000,0.24136
746.00000,0.23363
750.00000,0.22242
754.00000,0.22098
758.00000,0.21969
762.00000,0.21968
766.00000,0.21873
770.00000,0.21940
774.00000,0.21605
778.00000,0.23379
782.00000,0.23840
786.00000,0.21520
790.00000,0.21139
794.00000,0.22164
798.00000,0.22019
802.00000,0.22445
806.00000,0.21676
810.00000,0.21862
814.00000,0.21288
818.00000,0.21611
822.00000,0.21155
826.00000,0.21584
830.00000,0.21218
834.00000,0.21294
838.00000,0.21275
842.00000,0.21165
846.00000,0.21636
850.00000,0.21173
854.00000,0.21501
858.00000,0.21312
862.00000,0.21531
866.00000,0.21302
870.00000,0.21517
874.00000,0.21479
878.00000,0.21307
882.00000,0.21629
886.00000,0.21502
890.00000,0.21640
894.00000,0.21469
898.00000,0.21530
902.00000,0.21546
906.00000,0.21639
910.00000,0.21616
914.00000,0.21516
918.00000,0.21449
922.00000,0.21323
926.00000,0.21630
930.00000,0.21356
934.00000,0.21363
938.00000,0.21341
942.00000,0.21529
946.00000,0.21447
950.00000,0.21529
954.00000,0.21596
958.00000,0.21588
962.00000,0.21745
966.00000,0.21592
970.00000,0.21734
974.00000,0.21591
978.00000,0.21889
982.00000,0.21920
986.00000,0.22003
990.00000,0.21994
994.00000,0.22407
998.00000,0.23194
1002.00000,0.24323
1006.00000,0.26317
1010.00000,0.29046
1014.00000,0.31997
1018.00000,0.33754
1022.00000,0.33950
1026.00000,0.32910
1030.00000,0.33381
1034.00000,0.40454
1038.00000,0.43048
1042.00000,0.31064
1046.00000,0.29462
1050.00000,0.32931
1054.00000,0.32633
1058.00000,0.31439
1062.00000,0.28263
1066.00000,0.25977
1070.00000,0.24001
1074.00000,0.23117
1078.00000,0.22395
1082.00000,0.21976
1086.00000,0.21913
1090.00000,0.21713
1094.00000,0.21917
1098.00000,0.21644
1102.00000,0.21891
1106.00000,0.21734
1110.00000,0.21831
1114.00000,0.21781
1118.00000,0.21878
1122.00000,0.21930
1126.00000,0.21710
1130.00000,0.21948
1134.00000,0.22033
1138.00000,0.22338
1142.00000,0.22224
1146.00000,0.22258
1150.00000,0.21993
1154.00000,0.21974
1158.00000,0.21981
1162.00000,0.22049
1166.00000,0.22071
1170.00000,0.22078
1174.00000,0.22306
1178.00000,0.22316
1182.00000,0.22547
1186.00000,0.22301
1190.00000,0.22436
1194.00000,0.22164
1198.00000,0.22141
1202.00000,0.22253
1206.00000,0.22261
1210.00000,0.22313
1214.00000,0.22395
1218.00000,0.22462
1222.00000,0.22495
1226.00000,0.22874
1230.00000,0.22819
1234.00000,0.23008
1238.00000,0.23121
1242.00000,0.23459
1246.00000,0.23467
1250.00000,0.23467
1254.00000,0.23833
1258.00000,0.23675
1262.00000,0.23714
1266.00000,0.23403
1270.00000,0.23531
1274.00000,0.23460
1278.00000,0.23512
1282.00000,0.23623
1286.00000,0.23631
1290.00000,0.23826
1294.00000,0.23791
1298.00000,0.23873
1302.00000,0.23821
1306.00000,0.23874
1310.00000,0.23852
1314.00000,0.24127
1318.00000,0.24128
1322.00000,0.24112
1326.00000,0.24106
1330.00000,0.23963
1334.00000,0.24045
1338.00000,0.24262
1342.00000,0.24300
1346.00000,0.23958
1350.00000,0.24310
1354.00000,0.24586
1358.00000,0.25098
1362.00000,0.25434
1366.00000,0.25652
1370.00000,0.26293
1374.00000,0.26721
1378.00000,0.26993
1382.00000,0.27471
1386.00000,0.27505
1390.00000,0.26687
1394.00000,0.26379
1398.00000,0.26307
1402.00000,0.25846
1406.00000,0.25345
1410.00000,0.25023
1414.00000,0.24614
1418.00000,0.24996
1422.00000,0.24881
1426.00000,0.24828
1430.00000,0.24654
1434.00000,0.25100
1438.00000,0.25339
1442.00000,0.25273
1446.00000,0.25849
1450.00000,0.27389
1454.00000,0.30229
1458.00000,0.35281
1462.00000,0.40288
1466.00000,0.45479
1470.00000,0.48056
1474.00000,0.47794
1478.00000,0.49415
1482.00000,0.55678
1486.00000,0.49682
1490.00000,0.45159
1494.00000,0.48322
1498.00000,0.49497
1502.00000,0.46735
1506.00000,0.41956
1510.00000,0.36922
1514.00000,0.33497
1518.00000,0.32051
1522.00000,0.31752
1526.00000,0.30949
1530.00000,0.30830
1534.00000,0.29582
1538.00000,0.28477
1542.00000,0.27474
1546.00000,0.26671
1550.00000,0.26035
1554.00000,0.25921
1558.00000,0.26589
1562.00000,0.26238
1566.00000,0.25902
1570.00000,0.25937
1574.00000,0.26264
1578.00000,0.26115
1582.00000,0.26129
1586.00000,0.25818
1590.00000,0.25976
1594.00000,0.25913
1598.00000,0.26185
1602.00000,0.26047
1606.00000,0.26229
1610.00000,0.26222
1614.00000,0.26229
1618.00000,0.26626
1622.00000,0.26821
1626.00000,0.26549
1630.00000,0.25978
1634.00000,0.26567
1638.00000,0.26563
1642.00000,0.26200
1646.00000,0.26246
1650.00000,0.26674
1654.00000,0.27039
1658.00000,0.26594
1662.00000,0.26721
1666.00000,0.26864
1670.00000,0.26960
1674.00000,0.27087
1678.00000,0.26853
1682.00000,0.27050
1686.00000,0.27277
1690.00000,0.26887
1694.00000,0.26763
1698.00000,0.27443
1702.00000,0.27225
1706.00000,0.27083
1710.00000,0.26707
1714.00000,0.27158
1718.00000,0.27572
1722.00000,0.27017
1726.00000,0.26999
1730.00000,0.27366
1734.00000,0.27957
1738.00000,0.27577
1742.00000,0.27613
1746.00000,0.27650
1750.00000,0.27987
1754.00000,0.28398
1758.00000,0.28106
1762.00000,0.27934
1766.00000,0.28198
1770.00000,0.28863
1774.00000,0.29454
1778.00000,0.29895
1782.00000,0.30931
1786.00000,0.32484
1790.00000,0.34901
1794.00000,0.37527
1798.00000,0.39360
1802.00000,0.40146
1806.00000,0.39415
1810.00000,0.39085
1814.00000,0.38613
1818.00000,0.38650
1822.00000,0.38598
1826.00000,0.36166
1830.00000,0.32731
1834.00000,0.29775
1838.00000,0.28286
1842.00000,0.27874
1846.00000,0.27777
1850.00000,0.27635
1854.00000,0.27477
1858.00000,0.27589
1862.00000,0.27612
1866.00000,0.27995
1870.00000,0.28059
1874.00000,0.27886
1878.00000,0.27894
1882.00000,0.27856
1886.00000,0.27968
1890.00000,0.27991
1894.00000,0.27878
1898.00000,0.27811
1902.00000,0.27803
1906.00000,0.27673
1910.00000,0.27938
1914.00000,0.28095
1918.00000,0.28463
1922.00000,0.28829
1926.00000,0.29450
1930.00000,0.30565
1934.00000,0.32009
1938.00000,0.33769
1942.00000,0.35505
1946.00000,0.36503
1950.00000,0.36421
1954.00000,0.36282
1958.00000,0.35960
1962.00000,0.35502
1966.00000,0.35689
1970.00000,0.34768
1974.00000,0.32549
1978.00000,0.30331
1982.00000,0.29120
1986.00000,0.28634
1990.00000,0.28461
1994.00000,0.28274
1998.00000,0.28326
2002.00000,0.28603
2006.00000,0.28640
2010.00000,0.28348
2014.00000,0.28311
2018.00000,0.28408
2022.00000,0.28356
2026.00000,0.28483
2030.00000,0.28400
2034.00000,0.28450
2038.00000,0.28444
2042.00000,0.28479
2046.00000,0.28397
2050.00000,0.28359
2054.00000,0.28368
2058.00000,0.28448
2062.00000,0.28655
2066.00000,0.28523
2070.00000,0.28475
2074.00000,0.28435
2078.00000,0.28590
2082.00000,0.28773
2086.00000,0.28541
2090.00000,0.28509
2094.00000,0.28468
2098.00000,0.28381
2102.00000,0.28385
2106.00000,0.28377
2110.00000,0.28413
2114.00000,0.28510
2118.00000,0.28394
2122.00000,0.28496
2126.00000,0.28606
2130.00000,0.28599
2134.00000,0.28696
2138.00000,0.28734
2142.00000,0.28608
2146.00000,0.28570
2150.00000,0.28623
2154.00000,0.28570
2158.00000,0.28563
2162.00000,0.28630
2166.00000,0.28609
2170.00000,0.28661
2174.00000,0.28653
2178.00000,0.28694
2182.00000,0.28640
2186.00000,0.28707
2190.00000,0.28774
2194.00000,0.28961
2198.00000,0.29248
2202.00000,0.29572
2206.00000,0.29819
2210.00000,0.29868
2214.00000,0.29906
2218.00000,0.29960
2222.00000,0.30030
2226.00000,0.29734
2230.00000,0.29746
2234.00000,0.29793
2238.00000,0.30068
2242.00000,0.30891
2246.00000,0.31724
2250.00000,0.35351
2254.00000,0.36726
2258.00000,0.35942
2262.00000,0.42986
2266.00000,0.40545
2270.00000,0.44439
2274.00000,0.45584
2278.00000,0.46408
2282.00000,0.46955
2286.00000,0.43499
2290.00000,0.48649
2294.00000,0.64659
2298.00000,0.60463
2302.00000,1.15665
2306.00000,0.92281
2310.00000,1.31218
2314.00000,1.68219
2318.00000,1.98776
2322.00000,2.01807
2326.00000,2.05406
2330.00000,2.03535
2334.00000,2.00725
2338.00000,1.98923
2342.00000,1.98022
2346.00000,1.97401
2350.00000,1.93789
2354.00000,1.91875
2358.00000,1.86647
2362.00000,1.81882
2366.00000,1.80583
2370.00000,1.79618
2374.00000,1.77440
2378.00000,1.75223
2382.00000,1.01213
2386.00000,0.55875
2390.00000,0.45640
2394.00000,0.38100
2398.00000,0.30675
2402.00000,0.30560
2406.00000,0.30426
2410.00000,0.30371
2414.00000,0.30148
2418.00000,0.30061
2422.00000,0.30113
2426.00000,0.30194
2430.00000,0.30141
2434.00000,0.30103
2438.00000,0.30051
2442.00000,0.30000
2446.00000,0.29933
2450.00000,0.29955
2454.00000,0.30008
2458.00000,0.30015
2462.00000,0.30082
2466.00000,0.30060
2470.00000,0.30202
2474.00000,0.30149
2478.00000,0.30261
2482.00000,0.30224
2486.00000,0.30231
2490.00000,0.30208
2494.00000,0.30231
2498.00000,0.30223
2502.00000,0.30126
2506.00000,0.30163
2510.00000,0.30111
2514.00000,0.30297
2518.00000,0.30230
2522.00000,0.30297
2526.00000,0.30338
2530.00000,0.30298
2534.00000,0.30306
2538.00000,0.30403
2542.00000,0.30365
2546.00000,0.30402
2550.00000,0.30500
2554.00000,0.30477
2558.00000,0.30441
2562.00000,0.30389
2566.00000,0.30502
2570.00000,0.30584
2574.00000,0.30651
2578.00000,0.30748
2582.00000,0.30711
2586.00000,0.30808
2590.00000,0.30876
2594.00000,0.30973
2598.00000,0.30981
2602.00000,0.31198
2606.00000,0.31295
2610.00000,0.31302
2614.00000,0.31145
2618.00000,0.30943
2622.00000,0.31025
2626.00000,0.30793
2630.00000,0.30875
2634.00000,0.30807
2638.00000,0.30860
2642.00000,0.30927
2646.00000,0.31174
2650.00000,0.31243
2654.00000,0.31116
2658.00000,0.31075
2662.00000,0.31068
2666.00000,0.31255
2670.00000,0.31229
2674.00000,0.31284
2678.00000,0.31201
2682.00000,0.31209
2686.00000,0.31200
2690.00000,0.31045
2694.00000,0.30933
2698.00000,0.30835
2702.00000,0.30858
2706.00000,0.30700
2710.00000,0.30752
2714.00000,0.30775
2718.00000,0.30767
2722.00000,0.30760
2726.00000,0.30827
2730.00000,0.30879
2734.00000,0.30871
2738.00000,0.30909
2742.00000,0.30931
2746.00000,0.31043
2750.00000,0.31021
2754.00000,0.31192
2758.00000,0.31065
2762.00000,0.31252
2766.00000,0.31289
2770.00000,0.31222
2774.00000,0.31259
2778.00000,0.31326
2782.00000,0.31319
2786.00000,0.31431
2790.00000,0.31543
2794.00000,0.31580
2798.00000,0.31827
2802.00000,0.31954
2806.00000,0.32126
2810.00000,0.32343
2814.00000,0.32470
2818.00000,0.32627
2822.00000,0.32694
2826.00000,0.32791
2830.00000,0.32784
2834.00000,0.32683
2838.00000,0.32657
2842.00000,0.32662
2846.00000,0.32520
2850.00000,0.32550
2854.00000,0.32685
2858.00000,0.32904
2862.00000,0.33045
2866.00000,0.33215
2870.00000,0.33468
2874.00000,0.33486
2878.00000,0.33655
2882.00000,0.33694
2886.00000,0.33903
2890.00000,0.34226
2894.00000,0.34607
2898.00000,0.34662
2902.00000,0.34256
2906.00000,0.33617
2910.00000,0.33254
2914.00000,0.32887
2918.00000,0.32730
2922.00000,0.32884
2926.00000,0.32808
2930.00000,0.33019
2934.00000,0.33302
2938.00000,0.33252
2942.00000,0.33140
2946.00000,0.33139
2950.00000,0.33170
2954.00000,0.32987
2958.00000,0.33142
2962.00000,0.33009
2966.00000,0.33083
2970.00000,0.33014
2974.00000,0.32996
2978.00000,0.33018
2982.00000,0.33070
2986.00000,0.33168
2990.00000,0.33265
2994.00000,0.33541
2998.00000,0.33684
3002.00000,0.34290
3006.00000,0.35584
3010.00000,0.37986
3014.00000,0.42064
3018.00000,0.49210
3022.00000,0.59888
3026.00000,0.73858
3030.00000,0.87380
3034.00000,0.95768
3038.00000,0.98237
3042.00000,1.01349
3046.00000,1.06579
3050.00000,1.05449
3054.00000,1.06100
3058.00000,1.11600
3062.00000,1.07327
3066.00000,0.97338
3070.00000,0.90521
3074.00000,0.85425
3078.00000,0.85407
3082.00000,0.96711
3086.00000,1.00161
3090.00000,0.93778
3094.00000,0.89565
3098.00000,0.86414
3102.00000,0.83249
3106.00000,0.79665
3110.00000,0.80271
3114.00000,0.75324
3118.00000,0.62326
3122.00000,0.48999
3126.00000,0.40060
3130.00000,0.36130
3134.00000,0.34401
3138.00000,0.33834
3142.00000,0.33625
3146.00000,0.33498
3150.00000,0.33426
3154.00000,0.33454
3158.00000,0.33446
3162.00000,0.33349
3166.00000,0.33551
3170.00000,0.33453
3174.00000,0.33565
3178.00000,0.33513
3182.00000,0.33640
3186.00000,0.33572
3190.00000,0.33714
3194.00000,0.33542
3198.00000,0.33729
3202.00000,0.33617
3206.00000,0.33669
3210.00000,0.33751
3214.00000,0.34028
3218.00000,0.33781
3222.00000,0.33683
3226.00000,0.33840
3230.00000,0.33908
3234.00000,0.33840
3238.00000,0.33818
3242.00000,0.33885
3246.00000,0.33817
3250.00000,0.34021
3254.00000,0.34104
3258.00000,0.33857
3262.00000,0.34014
3266.00000,0.33737
3270.00000,0.33999
3274.00000,0.34081
3278.00000,0.33969
3282.00000,0.34111
3286.00000,0.34073
3290.00000,0.34052
3294.00000,0.34149
3298.00000,0.34306
3302.00000,0.34044
3306.00000,0.34216
3310.00000,0.34014
3314.00000,0.34036
3318.00000,0.34089
3322.00000,0.34051
3326.00000,0.34358
3330.00000,0.34066
3334.00000,0.34507
3338.00000,0.34559
3342.00000,0.34806
3346.00000,0.34888
3350.00000,0.34911
3354.00000,0.34843
3358.00000,0.34940
3362.00000,0.34948
3366.00000,0.34790
3370.00000,0.35127
3374.00000,0.34940
3378.00000,0.34977
3382.00000,0.34880
3386.00000,0.34872
3390.00000,0.35044
3394.00000,0.35021
3398.00000,0.35328
3402.00000,0.35306
3406.00000,0.35358
3410.00000,0.35350
3414.00000,0.35268
3418.00000,0.35260
3422.00000,0.35282
3426.00000,0.35320
3430.00000,0.35417
3434.00000,0.35304
3438.00000,0.35192
3442.00000,0.35109
3446.00000,0.35265
3450.00000,0.35272
3454.00000,0.35459
3458.00000,0.35616
3462.00000,0.35369
3466.00000,0.35422
3470.00000,0.35309
3474.00000,0.35361
3478.00000,0.35309
3482.00000,0.35107
3486.00000,0.35354
3490.00000,0.35286
3494.00000,0.35203
3498.00000,0.35511
3502.00000,0.35588
3506.00000,0.35644
3510.00000,0.35840
3514.00000,0.35742
3518.00000,0.35725
3522.00000,0.35986
3526.00000,0.35832
3530.00000,0.35964
3534.00000,0.36039
3538.00000,0.36378
3542.00000,0.36643
3546.00000,0.37060
3550.00000,0.37609
3554.00000,0.38303
3558.00000,0.38755
3562.00000,0.40017
3566.00000,0.40515
3570.00000,0.40833
3574.00000,0.41928
3578.00000,0.43262
3582.00000,0.47797
3586.00000,0.52248
3590.00000,0.53939
3594.00000,0.53832
3598.00000,0.53242
3602.00000,0.48744
3606.00000,0.41622
3610.00000,0.45818
3614.00000,0.52826
3618.00000,0.57770
3622.00000,0.57080
3626.00000,0.53855
3630.00000,0.50726
3634.00000,0.44379
3638.00000,0.40422
3642.00000,0.38554
3646.00000,0.38212
3650.00000,0.38226
3654.00000,0.38282
3658.00000,0.39346
3662.00000,0.40676
3666.00000,0.41383
3670.00000,0.43010
3674.00000,0.46017
3678.00000,0.47193
3682.00000,0.51086
3686.00000,0.54873
3690.00000,0.57836
3694.00000,0.60428
3698.00000,0.59535
3702.00000,0.55163
3706.00000,0.48892
3710.00000,0.54531
3714.00000,0.66189
3718.00000,0.67994
3722.00000,0.64023
3726.00000,0.60675
3730.00000,0.54159
3734.00000,0.45430
3738.00000,0.40026
3742.00000,0.37615
3746.00000,0.37150
3750.00000,0.37002
3754.00000,0.37109
3758.00000,0.37278
3762.00000,0.36747
3766.00000,0.36978
3770.00000,0.37135
3774.00000,0.36484
3778.00000,0.37103
3782.00000,0.37171
3786.00000,0.37305
3790.00000,0.37111
3794.00000,0.36991
